wavelength,flux
4.00,0.12000
4.50,0.09890
5.00,0.08151
5.50,0.06718
6.00,0.05536
6.50,0.04563
7.00,0.03760
7.50,0.03099
8.00,0.02554
8.50,0.02105
9.00,0.01735
9.50,0.01430
10.00,0.01178
10.50,0.00971
11.00,0.00800
11.50,0.00660
12.00,0.00544
12.50,0.00448
13.00,0.00369
13.50,0.00304
14.00,0.00251
14.50,0.00207
15.00,0.00170
15.50,0.00140
16.00,0.00116
16.50,0.00095
17.00,0.00079
17.50,0.00065
18.00,0.00053
18.33,0.00044
